# Matter power spectrum P(k) at redshift z=0
# for k=1.05233e-05 to 105.341 h/Mpc,
# number of wavenumbers equal to 132
#    1:k (h/Mpc)              2:P (Mpc/h)^3        
       1.052325563190e-05       5.086798340558e+01 
       1.324799392981e-05       6.348685630744e+01 
       1.667823621353e-05       7.923603325717e+01 
       2.099665539312e-05       9.889196100072e+01 
       2.643322303708e-05       1.234236003054e+02 
       3.327745619701e-05       1.540401239078e+02 
       4.189383524628e-05       1.922502770291e+02 
       5.274121378906e-05       2.399363620138e+02 
       6.639725428791e-05       2.994461924078e+02 
       8.358919069641e-05       3.737071963508e+02 
       1.052325563190e-04       4.663674430065e+02 
       1.324799392981e-04       5.819690724167e+02 
       1.667823621353e-04       7.261596948429e+02 
       2.099665539312e-04       9.059466255762e+02 
       2.643322303708e-04       1.129996332470e+03 
       3.327745619701e-04       1.408976100809e+03 
       4.189383524628e-04       1.755925722956e+03 
       5.274121378906e-04       2.186634695167e+03 
       6.639725428791e-04       2.719986571000e+03 
       8.358919069641e-04       3.378210132618e+03 
       1.052325563190e-03       4.186904706193e+03 
       1.324799392981e-03       5.174545896857e+03 
       1.667823621353e-03       6.370939062578e+03 
       2.099665539312e-03       7.804961494727e+03 
       2.643322303708e-03       9.499809400051e+03 
       3.327745619701e-03       1.146637942564e+04 
       4.189383524628e-03       1.369424432418e+04 
       5.274121378906e-03       1.613929777576e+04 
       6.639725428791e-03       1.870854724951e+04 
       8.358919069642e-03       2.124618811207e+04 
       1.052325563190e-02       2.351417693927e+04 
       1.324799392981e-02       2.518527645765e+04 
       1.667823621350e-02       2.585605651615e+04 
       2.099665522924e-02       2.512988348739e+04 
       2.643309761834e-02       2.282080715776e+04 
       3.326002122651e-02       1.927517736439e+04 
       4.131135589294e-02       1.570683238070e+04 
       4.811202194738e-02       1.364811130195e+04 
       5.304182528443e-02       1.263023974546e+04 
       5.710511145546e-02       1.199202503100e+04 
       6.073207945960e-02       1.150813103074e+04 
       6.411431392845e-02       1.108472221125e+04 
       6.735313736867e-02       1.067441806459e+04 
       7.050926880462e-02       1.025230533634e+04 
       7.362257520428e-02       9.805975372813e+03 
       7.672114380749e-02       9.332418367574e+03 
       7.982592386583e-02       8.835537203415e+03 
       8.295330495577e-02       8.324151223295e+03 
       8.611664426660e-02       7.810527617146e+03 
       8.932721911681e-02       7.308598206904e+03 
       9.259484646335e-02       6.832318521638e+03 
       9.592829999661e-02       6.394409354779e+03 
       9.933559909729e-02       6.004152420041e+03 
       1.028242137833e-01       5.667802677655e+03 
       1.064012128639e-01       5.386134435728e+03 
       1.100733726481e-01       5.155748839485e+03 
       1.138472575981e-01       4.968542774494e+03 
       1.177292806122e-01       4.812165799419e+03 
       1.217257482704e-01       4.671475639191e+03 
       1.258428948431e-01       4.530204887565e+03 
       1.300869078613e-01       4.373262347640e+03 
       1.344639473758e-01       4.190081017939e+03 
       1.389801605906e-01       3.976815602361e+03 
       1.436416932587e-01       3.737860955871e+03 
       1.484546990338e-01       3.484690592974e+03 
       1.534253478460e-01       3.233995034935e+03 
       1.585598342893e-01       3.002502504381e+03 
       1.638643869571e-01       2.803533074789e+03 
       1.693452796308e-01       2.643305980365e+03 
       1.750088452092e-01       2.519596495796e+03 
       1.808614932489e-01       2.422010063006e+03 
       1.869097319797e-01       2.335374737683e+03 
       1.931601956551e-01       2.243099657224e+03 
       1.996196780992e-01       2.132510893692e+03 
       2.062951733253e-01       2.001598528644e+03 
       2.131939241352e-01       1.859721232924e+03 
       2.203234796654e-01       1.721631323556e+03 
       2.276917629459e-01       1.600580705525e+03 
       2.353071496834e-01       1.503116189887e+03 
       2.431785597023e-01       1.427195353739e+03 
       2.513155627822e-01       1.362492988014e+03 
       2.597285010502e-01       1.296063462140e+03 
       2.684286306594e-01       1.220374511738e+03 
       2.774282862368e-01       1.136822780979e+03 
       2.867410725913e-01       1.054141470035e+03 
       2.963820894950e-01       9.821472904956e+02 
       3.063681971095e-01       9.234805263691e+02 
       3.167183319663e-01       8.730739225911e+02 
       3.274538865532e-01       8.232061681777e+02 
       3.385991698130e-01       7.694419652046e+02 
       3.501819717084e-01       7.147590031228e+02 
       3.622342631278e-01       6.647363921258e+02 
       3.747930738711e-01       6.218194652386e+02 
       3.879016078773e-01       5.827006218587e+02 
       4.016106788048e-01       5.434768347995e+02 
       4.159805846340e-01       5.040403496436e+02 
       4.310835938483e-01       4.672330718098e+02 
       4.470072992362e-01       4.339485037202e+02 
       4.638592278864e-01       4.024108145913e+02 
       4.817733121261e-01       3.712012942333e+02 
       5.009191895708e-01       3.414366906191e+02 
       5.215159324747e-01       3.137665634658e+02 
       5.438529485673e-01       2.868618309573e+02 
       5.683229503997e-01       2.607937810026e+02 
       5.954761615301e-01       2.358532737454e+02 
       6.261138818697e-01       2.113858514664e+02 
       6.614595265293e-01       1.874411906223e+02 
       7.034930696269e-01       1.635849195005e+02 
       7.556571849626e-01       1.395269763470e+02 
       8.244684816901e-01       1.147396882274e+02 
       9.233250051489e-01       8.874893961033e+01 
       1.079589821095e+00       6.195316299897e+01 
       1.328436831247e+00       3.815588405611e+01 
       1.669582444900e+00       2.215501089423e+01 
       2.101825860993e+00       1.269655304061e+01 
       2.646041785469e+00       7.215862431054e+00 
       3.331169244290e+00       4.070362775445e+00 
       4.193693612623e+00       2.280493953132e+00 
       5.279547458211e+00       1.269804845499e+00 
       6.646556457915e+00       7.030352248698e-01 
       8.367518825793e+00       3.872203092919e-01 
       1.053408208346e+01       2.122610670394e-01 
       1.326162362479e+01       1.158414086460e-01 
       1.669539498290e+01       6.295737539115e-02 
       2.101825700391e+01       3.408309252222e-02 
       2.646041785384e+01       1.838273271000e-02 
       3.331169244290e+01       9.878639637260e-03 
       4.193693612623e+01       5.289117454051e-03 
       5.279547458211e+01       2.820820814827e-03 
       6.646556457915e+01       1.497864287728e-03 
       8.367518825793e+01       7.912291303140e-04 
       1.053408208346e+02       4.152011507456e-04 
